#      z (A) rho (1e-6/A2) irho (1e-6/A2)
-17.58091398  -0.49464478   0.00000000
-17.48091398  -0.49461525   0.00000000
-17.38091398  -0.49458417   0.00000000
-17.28091398  -0.49455149   0.00000000
-17.18091398  -0.49451711   0.00000000
-17.08091398  -0.49448097   0.00000000
-16.98091398  -0.49444300   0.00000000
-16.88091398  -0.49440309   0.00000000
-16.78091398  -0.49436118   0.00000000
-16.68091398  -0.49431717   0.00000000
-16.58091398  -0.49427096   0.00000000
-16.48091398  -0.49422248   0.00000000
-16.38091398  -0.49417161   0.00000000
-16.28091398  -0.49411826   0.00000000
-16.18091398  -0.49406232   0.00000000
-16.08091398  -0.49400368   0.00000000
-15.98091398  -0.49394223   0.00000000
-15.88091398  -0.49387785   0.00000000
-15.78091398  -0.49381043   0.00000000
-15.68091398  -0.49373984   0.00000000
-15.58091398  -0.49366595   0.00000000
-15.48091398  -0.49358864   0.00000000
-15.38091398  -0.49350776   0.00000000
-15.28091398  -0.49342318   0.00000000
-15.18091398  -0.49333476   0.00000000
-15.08091398  -0.49324234   0.00000000
-14.98091398  -0.49314577   0.00000000
-14.88091398  -0.49304490   0.00000000
-14.78091398  -0.49293957   0.00000000
-14.68091398  -0.49282961   0.00000000
-14.58091398  -0.49271484   0.00000000
-14.48091398  -0.49259511   0.00000000
-14.38091398  -0.49247022   0.00000000
-14.28091398  -0.49233999   0.00000000
-14.18091398  -0.49220424   0.00000000
-14.08091398  -0.49206277   0.00000000
-13.98091398  -0.49191538   0.00000000
-13.88091398  -0.49176188   0.00000000
-13.78091398  -0.49160205   0.00000000
-13.68091398  -0.49143568   0.00000000
-13.58091398  -0.49126256   0.00000000
-13.48091398  -0.49108246   0.00000000
-13.38091398  -0.49089515   0.00000000
-13.28091398  -0.49070042   0.00000000
-13.18091398  -0.49049801   0.00000000
-13.08091398  -0.49028769   0.00000000
-12.98091398  -0.49006922   0.00000000
-12.88091398  -0.48984234   0.00000000
-12.78091398  -0.48960680   0.00000000
-12.68091398  -0.48936234   0.00000000
-12.58091398  -0.48910870   0.00000000
-12.48091398  -0.48884560   0.00000000
-12.38091398  -0.48857279   0.00000000
-12.28091398  -0.48828997   0.00000000
-12.18091398  -0.48799687   0.00000000
-12.08091398  -0.48769321   0.00000000
-11.98091398  -0.48737869   0.00000000
-11.88091398  -0.48705303   0.00000000
-11.78091398  -0.48671592   0.00000000
-11.68091398  -0.48636707   0.00000000
-11.58091398  -0.48600618   0.00000000
-11.48091398  -0.48563293   0.00000000
-11.38091398  -0.48524702   0.00000000
-11.28091398  -0.48484813   0.00000000
-11.18091398  -0.48443595   0.00000000
-11.08091398  -0.48401017   0.00000000
-10.98091398  -0.48357046   0.00000000
-10.88091398  -0.48311649   0.00000000
-10.78091398  -0.48264795   0.00000000
-10.68091398  -0.48216451   0.00000000
-10.58091398  -0.48166584   0.00000000
-10.48091398  -0.48115161   0.00000000
-10.38091398  -0.48062149   0.00000000
-10.28091398  -0.48007516   0.00000000
-10.18091398  -0.47951228   0.00000000
-10.08091398  -0.47893251   0.00000000
 -9.98091398  -0.47833554   0.00000000
 -9.88091398  -0.47772103   0.00000000
 -9.78091398  -0.47708865   0.00000000
 -9.68091398  -0.47643807   0.00000000
 -9.58091398  -0.47576897   0.00000000
 -9.48091398  -0.47508102   0.00000000
 -9.38091398  -0.47437390   0.00000000
 -9.28091398  -0.47364729   0.00000000
 -9.18091398  -0.47290087   0.00000000
 -9.08091398  -0.47213432   0.00000000
 -8.98091398  -0.47134735   0.00000000
 -8.88091398  -0.47053963   0.00000000
 -8.78091398  -0.46971088   0.00000000
 -8.68091398  -0.46886079   0.00000000
 -8.58091398  -0.46798907   0.00000000
 -8.48091398  -0.46709543   0.00000000
 -8.38091398  -0.46617960   0.00000000
 -8.28091398  -0.46524130   0.00000000
 -8.18091398  -0.46428026   0.00000000
 -8.08091398  -0.46329623   0.00000000
 -7.98091398  -0.46228896   0.00000000
 -7.88091398  -0.46125819   0.00000000
 -7.78091398  -0.46020370   0.00000000
 -7.68091398  -0.45912526   0.00000000
 -7.58091398  -0.45802266   0.00000000
 -7.48091398  -0.45689567   0.00000000
 -7.38091398  -0.45574412   0.00000000
 -7.28091398  -0.45456782   0.00000000
 -7.18091398  -0.45336658   0.00000000
 -7.08091398  -0.45214026   0.00000000
 -6.98091398  -0.45088869   0.00000000
 -6.88091398  -0.44961173   0.00000000
 -6.78091398  -0.44830927   0.00000000
 -6.68091398  -0.44698119   0.00000000
 -6.58091398  -0.44562739   0.00000000
 -6.48091398  -0.44424779   0.00000000
 -6.38091398  -0.44284231   0.00000000
 -6.28091398  -0.44141090   0.00000000
 -6.18091398  -0.43995351   0.00000000
 -6.08091398  -0.43847013   0.00000000
 -5.98091398  -0.43696074   0.00000000
 -5.88091398  -0.43542535   0.00000000
 -5.78091398  -0.43386398   0.00000000
 -5.68091398  -0.43227667   0.00000000
 -5.58091398  -0.43066347   0.00000000
 -5.48091398  -0.42902446   0.00000000
 -5.38091398  -0.42735973   0.00000000
 -5.28091398  -0.42566939   0.00000000
 -5.18091398  -0.42395356   0.00000000
 -5.08091398  -0.42221239   0.00000000
 -4.98091398  -0.42044604   0.00000000
 -4.88091398  -0.41865469   0.00000000
 -4.78091398  -0.41683854   0.00000000
 -4.68091398  -0.41499781   0.00000000
 -4.58091398  -0.41313273   0.00000000
 -4.48091398  -0.41124357   0.00000000
 -4.38091398  -0.40933059   0.00000000
 -4.28091398  -0.40739410   0.00000000
 -4.18091398  -0.40543440   0.00000000
 -4.08091398  -0.40345183   0.00000000
 -3.98091398  -0.40144674   0.00000000
 -3.88091398  -0.39941949   0.00000000
 -3.78091398  -0.39737048   0.00000000
 -3.68091398  -0.39530012   0.00000000
 -3.58091398  -0.39320884   0.00000000
 -3.48091398  -0.39109707   0.00000000
 -3.38091398  -0.38896528   0.00000000
 -3.28091398  -0.38681397   0.00000000
 -3.18091398  -0.38464361   0.00000000
 -3.08091398  -0.38245474   0.00000000
 -2.98091398  -0.38024790   0.00000000
 -2.88091398  -0.37802362   0.00000000
 -2.78091398  -0.37578250   0.00000000
 -2.68091398  -0.37352510   0.00000000
 -2.58091398  -0.37125204   0.00000000
 -2.48091398  -0.36896394   0.00000000
 -2.38091398  -0.36666142   0.00000000
 -2.28091398  -0.36434515   0.00000000
 -2.18091398  -0.36201579   0.00000000
 -2.08091398  -0.35967401   0.00000000
 -1.98091398  -0.35732051   0.00000000
 -1.88091398  -0.35495601   0.00000000
 -1.78091398  -0.35258121   0.00000000
 -1.68091398  -0.35019685   0.00000000
 -1.58091398  -0.34780368   0.00000000
 -1.48091398  -0.34540245   0.00000000
 -1.38091398  -0.34299393   0.00000000
 -1.28091398  -0.34057890   0.00000000
 -1.18091398  -0.33815814   0.00000000
 -1.08091398  -0.33573244   0.00000000
 -0.98091398  -0.33330261   0.00000000
 -0.88091398  -0.33086946   0.00000000
 -0.78091398  -0.32843381   0.00000000
 -0.68091398  -0.32599649   0.00000000
 -0.58091398  -0.32355831   0.00000000
 -0.48091398  -0.32112012   0.00000000
 -0.38091398  -0.31868276   0.00000000
 -0.28091398  -0.31624706   0.00000000
 -0.18091398  -0.31381387   0.00000000
 -0.08091398  -0.31138404   0.00000000
  0.01908602  -0.30895841   0.00000000
  0.11908602  -0.30653784   0.00000000
  0.21908602  -0.30412317   0.00000000
  0.31908602  -0.30171525   0.00000000
  0.41908602  -0.29931492   0.00000000
  0.51908602  -0.29692303   0.00000000
  0.61908602  -0.29454041   0.00000000
  0.71908602  -0.29216790   0.00000000
  0.81908602  -0.28980634   0.00000000
  0.91908602  -0.28745654   0.00000000
  1.01908602  -0.28511933   0.00000000
  1.11908602  -0.28279551   0.00000000
  1.21908602  -0.28048590   0.00000000
  1.31908602  -0.27819129   0.00000000
  1.41908602  -0.27591246   0.00000000
  1.51908602  -0.27365019   0.00000000
  1.61908602  -0.27140525   0.00000000
  1.71908602  -0.26917840   0.00000000
  1.81908602  -0.26697037   0.00000000
  1.91908602  -0.26478191   0.00000000
  2.01908602  -0.26261372   0.00000000
  2.11908602  -0.26046652   0.00000000
  2.21908602  -0.25834099   0.00000000
  2.31908602  -0.25623781   0.00000000
  2.41908602  -0.25415764   0.00000000
  2.51908602  -0.25210113   0.00000000
  2.61908602  -0.25006889   0.00000000
  2.71908602  -0.24806155   0.00000000
  2.81908602  -0.24607970   0.00000000
  2.91908602  -0.24412390   0.00000000
  3.01908602  -0.24219473   0.00000000
  3.11908602  -0.24029271   0.00000000
  3.21908602  -0.23841837   0.00000000
  3.31908602  -0.23657220   0.00000000
  3.41908602  -0.23475469   0.00000000
  3.51908602  -0.23296630   0.00000000
  3.61908602  -0.23120745   0.00000000
  3.71908602  -0.22947858   0.00000000
  3.81908602  -0.22778008   0.00000000
  3.91908602  -0.22611232   0.00000000
  4.01908602  -0.22447565   0.00000000
  4.11908602  -0.22287042   0.00000000
  4.21908602  -0.22129692   0.00000000
  4.31908602  -0.21975545   0.00000000
  4.41908602  -0.21824628   0.00000000
  4.51908602  -0.21676964   0.00000000
  4.61908602  -0.21532576   0.00000000
  4.71908602  -0.21391484   0.00000000
  4.81908602  -0.21253705   0.00000000
  4.91908602  -0.21119256   0.00000000
  5.01908602  -0.20988148   0.00000000
  5.11908602  -0.20860393   0.00000000
  5.21908602  -0.20736001   0.00000000
  5.31908602  -0.20614977   0.00000000
  5.41908602  -0.20497325   0.00000000
  5.51908602  -0.20383049   0.00000000
  5.61908602  -0.20272148   0.00000000
  5.71908602  -0.20164619   0.00000000
  5.81908602  -0.20060460   0.00000000
  5.91908602  -0.19959663   0.00000000
  6.01908602  -0.19862220   0.00000000
  6.11908602  -0.19768121   0.00000000
  6.21908602  -0.19677353   0.00000000
  6.31908602  -0.19589902   0.00000000
  6.41908602  -0.19505751   0.00000000
  6.51908602  -0.19424883   0.00000000
  6.61908602  -0.19347277   0.00000000
  6.71908602  -0.19272911   0.00000000
  6.81908602  -0.19201762   0.00000000
  6.91908602  -0.19133804   0.00000000
  7.01908602  -0.19069010   0.00000000
  7.11908602  -0.19007351   0.00000000
  7.21908602  -0.18948796   0.00000000
  7.31908602  -0.18893314   0.00000000
  7.41908602  -0.18840871   0.00000000
  7.51908602  -0.18791432   0.00000000
  7.61908602  -0.18744960   0.00000000
  7.71908602  -0.18701417   0.00000000
  7.81908602  -0.18660766   0.00000000
  7.91908602  -0.18622964   0.00000000
  8.01908602  -0.18587971   0.00000000
  8.11908602  -0.18555743   0.00000000
  8.21908602  -0.18526237   0.00000000
  8.31908602  -0.18499407   0.00000000
  8.41908602  -0.18475209   0.00000000
  8.51908602  -0.18453594   0.00000000
  8.61908602  -0.18434515   0.00000000
  8.71908602  -0.18417923   0.00000000
  8.81908602  -0.18403770   0.00000000
  8.91908602  -0.18392004   0.00000000
  9.01908602  -0.18382576   0.00000000
  9.11908602  -0.18375433   0.00000000
  9.21908602  -0.18370523   0.00000000
  9.31908602  -0.18367795   0.00000000
  9.41908602  -0.18367195   0.00000000
  9.51908602  -0.18368669   0.00000000
  9.61908602  -0.18372165   0.00000000
  9.71908602  -0.18377628   0.00000000
  9.81908602  -0.18385004   0.00000000
  9.91908602  -0.18394239   0.00000000
 10.01908602  -0.18405278   0.00000000
 10.11908602  -0.18418066   0.00000000
 10.21908602  -0.18432549   0.00000000
 10.31908602  -0.18448672   0.00000000
 10.41908602  -0.18466381   0.00000000
 10.51908602  -0.18485621   0.00000000
 10.61908602  -0.18506338   0.00000000
 10.71908602  -0.18528477   0.00000000
 10.81908602  -0.18551986   0.00000000
 10.91908602  -0.18576809   0.00000000
 11.01908602  -0.18602895   0.00000000
 11.11908602  -0.18630189   0.00000000
 11.21908602  -0.18658640   0.00000000
 11.31908602  -0.18688196   0.00000000
 11.41908602  -0.18718804   0.00000000
 11.51908602  -0.18750414   0.00000000
 11.61908602  -0.18782975   0.00000000
 11.71908602  -0.18816437   0.00000000
 11.81908602  -0.18850752   0.00000000
 11.91908602  -0.18885869   0.00000000
 12.01908602  -0.18921742   0.00000000
 12.11908602  -0.18958323   0.00000000
 12.21908602  -0.18995564   0.00000000
 12.31908602  -0.19033421   0.00000000
 12.41908602  -0.19071849   0.00000000
 12.51908602  -0.19110802   0.00000000
 12.61908602  -0.19150237   0.00000000
 12.71908602  -0.19190113   0.00000000
 12.81908602  -0.19230386   0.00000000
 12.91908602  -0.19271016   0.00000000
 13.01908602  -0.19311964   0.00000000
 13.11908602  -0.19353189   0.00000000
 13.21908602  -0.19394653   0.00000000
 13.31908602  -0.19436320   0.00000000
 13.41908602  -0.19478153   0.00000000
 13.51908602  -0.19520115   0.00000000
 13.61908602  -0.19562174   0.00000000
 13.71908602  -0.19604295   0.00000000
 13.81908602  -0.19646445   0.00000000
 13.91908602  -0.19688593   0.00000000
 14.01908602  -0.19730709   0.00000000
 14.11908602  -0.19772762   0.00000000
 14.21908602  -0.19814725   0.00000000
 14.31908602  -0.19856568   0.00000000
 14.41908602  -0.19898265   0.00000000
 14.51908602  -0.19939791   0.00000000
 14.61908602  -0.19981120   0.00000000
 14.71908602  -0.20022229   0.00000000
 14.81908602  -0.20063095   0.00000000
 14.91908602  -0.20103695   0.00000000
 15.01908602  -0.20144009   0.00000000
 15.11908602  -0.20184016   0.00000000
 15.21908602  -0.20223697   0.00000000
 15.31908602  -0.20263034   0.00000000
 15.41908602  -0.20302009   0.00000000
 15.51908602  -0.20340605   0.00000000
 15.61908602  -0.20378808   0.00000000
 15.71908602  -0.20416602   0.00000000
 15.81908602  -0.20453973   0.00000000
 15.91908602  -0.20490908   0.00000000
 16.01908602  -0.20527396   0.00000000
 16.11908602  -0.20563423   0.00000000
 16.21908602  -0.20598980   0.00000000
 16.31908602  -0.20634057   0.00000000
 16.41908602  -0.20668644   0.00000000
 16.51908602  -0.20702733   0.00000000
 16.61908602  -0.20736316   0.00000000
 16.71908602  -0.20769387   0.00000000
 16.81908602  -0.20801939   0.00000000
 16.91908602  -0.20833967   0.00000000
 17.01908602  -0.20865465   0.00000000
 17.11908602  -0.20896429   0.00000000
 17.21908602  -0.20926855   0.00000000
 17.31908602  -0.20956741   0.00000000
 17.41908602  -0.20986083   0.00000000
 17.51908602  -0.21014881   0.00000000
 17.61908602  -0.21043131   0.00000000
 17.71908602  -0.21070834   0.00000000
 17.81908602  -0.21097990   0.00000000
 17.91908602  -0.21124597   0.00000000
 18.01908602  -0.21150658   0.00000000
 18.11908602  -0.21176172   0.00000000
 18.21908602  -0.21201141   0.00000000
 18.31908602  -0.21225568   0.00000000
 18.41908602  -0.21249453   0.00000000
 18.51908602  -0.21272801   0.00000000
 18.61908602  -0.21295614   0.00000000
 18.71908602  -0.21317895   0.00000000
 18.81908602  -0.21339649   0.00000000
 18.91908602  -0.21360878   0.00000000
 19.01908602  -0.21381587   0.00000000
 19.11908602  -0.21401781   0.00000000
 19.21908602  -0.21421465   0.00000000
 19.31908602  -0.21440643   0.00000000
 19.41908602  -0.21459321   0.00000000
 19.51908602  -0.21477504   0.00000000
 19.61908602  -0.21495198   0.00000000
 19.71908602  -0.21512409   0.00000000
 19.81908602  -0.21529142   0.00000000
 19.91908602  -0.21545404   0.00000000
 20.01908602  -0.21561200   0.00000000
 20.11908602  -0.21576538   0.00000000
 20.21908602  -0.21591424   0.00000000
 20.31908602  -0.21605864   0.00000000
 20.41908602  -0.21619864   0.00000000
 20.51908602  -0.21633433   0.00000000
 20.61908602  -0.21646575   0.00000000
 20.71908602  -0.21659298   0.00000000
 20.81908602  -0.21671609   0.00000000
 20.91908602  -0.21683515   0.00000000
 21.01908602  -0.21695021   0.00000000
 21.11908602  -0.21706136   0.00000000
 21.21908602  -0.21716866   0.00000000
 21.31908602  -0.21727217   0.00000000
 21.41908602  -0.21737197   0.00000000
 21.51908602  -0.21746811   0.00000000
 21.61908602  -0.21756067   0.00000000
 21.71908602  -0.21764971   0.00000000
 21.81908602  -0.21773529   0.00000000
 21.91908602  -0.21781748   0.00000000
 22.01908602  -0.21789635   0.00000000
 22.11908602  -0.21797194   0.00000000
 22.21908602  -0.21804433   0.00000000
 22.31908602  -0.21811357   0.00000000
 22.41908602  -0.21817973   0.00000000
 22.51908602  -0.21824285   0.00000000
 22.61908602  -0.21830299   0.00000000
 22.71908602  -0.21836022   0.00000000
 22.81908602  -0.21841457   0.00000000
 22.91908602  -0.21846611   0.00000000
 23.01908602  -0.21851488   0.00000000
 23.11908602  -0.21856094   0.00000000
 23.21908602  -0.21860432   0.00000000
 23.31908602  -0.21864508   0.00000000
 23.41908602  -0.21868325   0.00000000
 23.51908602  -0.21871888   0.00000000
 23.61908602  -0.21875201   0.00000000
 23.71908602  -0.21878267   0.00000000
 23.81908602  -0.21881091   0.00000000
 23.91908602  -0.21883675   0.00000000
 24.01908602  -0.21886023   0.00000000
 24.11908602  -0.21888138   0.00000000
 24.21908602  -0.21890022   0.00000000
 24.31908602  -0.21891679   0.00000000
 24.41908602  -0.21893110   0.00000000
 24.51908602  -0.21894318   0.00000000
 24.61908602  -0.21895305   0.00000000
 24.71908602  -0.21896073   0.00000000
 24.81908602  -0.21896622   0.00000000
 24.91908602  -0.21896954   0.00000000
 25.01908602  -0.21897071   0.00000000
 25.11908602  -0.21896974   0.00000000
 25.21908602  -0.21896661   0.00000000
 25.31908602  -0.21896136   0.00000000
 25.41908602  -0.21895396   0.00000000
 25.51908602  -0.21894442   0.00000000
 25.61908602  -0.21893274   0.00000000
 25.71908602  -0.21891891   0.00000000
 25.81908602  -0.21890293   0.00000000
 25.91908602  -0.21888477   0.00000000
 26.01908602  -0.21886443   0.00000000
 26.11908602  -0.21884189   0.00000000
 26.21908602  -0.21881713   0.00000000
 26.31908602  -0.21879012   0.00000000
 26.41908602  -0.21876085   0.00000000
 26.51908602  -0.21872928   0.00000000
 26.61908602  -0.21869538   0.00000000
 26.71908602  -0.21865912   0.00000000
 26.81908602  -0.21862046   0.00000000
 26.91908602  -0.21857936   0.00000000
 27.01908602  -0.21853579   0.00000000
 27.11908602  -0.21848968   0.00000000
 27.21908602  -0.21844099   0.00000000
 27.31908602  -0.21838968   0.00000000
 27.41908602  -0.21833567   0.00000000
 27.51908602  -0.21827892   0.00000000
 27.61908602  -0.21821936   0.00000000
 27.71908602  -0.21815691   0.00000000
 27.81908602  -0.21809152   0.00000000
 27.91908602  -0.21802310   0.00000000
 28.01908602  -0.21795159   0.00000000
 28.11908602  -0.21787688   0.00000000
 28.21908602  -0.21779890   0.00000000
 28.31908602  -0.21771756   0.00000000
 28.41908602  -0.21763276   0.00000000
 28.51908602  -0.21754441   0.00000000
 28.61908602  -0.21745239   0.00000000
 28.71908602  -0.21735659   0.00000000
 28.81908602  -0.21725692   0.00000000
 28.91908602  -0.21715324   0.00000000
 29.01908602  -0.21704543   0.00000000
 29.11908602  -0.21693337   0.00000000
 29.21908602  -0.21681692   0.00000000
 29.31908602  -0.21669594   0.00000000
 29.41908602  -0.21657028   0.00000000
 29.51908602  -0.21643980   0.00000000
 29.61908602  -0.21630434   0.00000000
 29.71908602  -0.21616373   0.00000000
 29.81908602  -0.21601781   0.00000000
 29.91908602  -0.21586640   0.00000000
 30.01908602  -0.21570932   0.00000000
 30.11908602  -0.21554637   0.00000000
 30.21908602  -0.21537737   0.00000000
 30.31908602  -0.21520211   0.00000000
 30.41908602  -0.21502038   0.00000000
 30.51908602  -0.21483196   0.00000000
 30.61908602  -0.21463663   0.00000000
 30.71908602  -0.21443414   0.00000000
 30.81908602  -0.21422427   0.00000000
 30.91908602  -0.21400675   0.00000000
 31.01908602  -0.21378133   0.00000000
 31.11908602  -0.21354774   0.00000000
 31.21908602  -0.21330570   0.00000000
 31.31908602  -0.21305492   0.00000000
 31.41908602  -0.21279511   0.00000000
 31.51908602  -0.21252597   0.00000000
 31.61908602  -0.21224716   0.00000000
 31.71908602  -0.21195837   0.00000000
 31.81908602  -0.21165926   0.00000000
 31.91908602  -0.21134948   0.00000000
 32.01908602  -0.21102866   0.00000000
 32.11908602  -0.21069643   0.00000000
 32.21908602  -0.21035242   0.00000000
 32.31908602  -0.20999622   0.00000000
 32.41908602  -0.20962742   0.00000000
 32.51908602  -0.20924561   0.00000000
 32.61908602  -0.20885034   0.00000000
 32.71908602  -0.20844117   0.00000000
 32.81908602  -0.20801764   0.00000000
 32.91908602  -0.20757927   0.00000000
 33.01908602  -0.20712557   0.00000000
 33.11908602  -0.20665604   0.00000000
 33.21908602  -0.20617015   0.00000000
 33.31908602  -0.20566737   0.00000000
 33.41908602  -0.20514715   0.00000000
