# intensity: 1.04756810755825
# background: 5.44444630621678e-06
#           Q (1/A)             dQ (1/A)                    R                   dR               theory              fresnel
 0.00799217283592589      9.841027933e-05        0.08634541668      0.0025603588041    0.083571332296296     1.04757355200456
 0.00850100315000752     0.00010439844065       0.078215381966      0.0022733926929   0.0745287994158316     1.04757355200456
 0.00900108825100241     0.00011078156254       0.067198582951      0.0019551173426   0.0653761364312992     1.04757355200456
 0.00949234350961612     0.00011654621177       0.057016468461      0.0016853631724   0.0576221571245523     1.04757355200456
  0.0100011727364692     0.00012308693771       0.053185987312      0.0015667129286   0.0506817055055645    0.995886253273062
  0.0105100015533808     0.00012892172182       0.045745232306      0.0013463079996   0.0446755706226023    0.539108705368528
  0.0110056694610088     0.00013536381254        0.04103340377       0.001206680152   0.0395896818141538    0.270639289474008
  0.0115014425282245      0.0001410084948       0.037154673432      0.0010998497533   0.0351471189317646     0.16557707350493
  0.0120057394817306     0.00014756158174       0.032270905417     0.00097309436628   0.0311924486163243    0.113976898294028
   0.012501447198079     0.00015334407921       0.030285189317     0.00090650166674   0.0277804630989011   0.0837884047241783
   0.013001535393958     0.00015988042792       0.025438059025     0.00077406277334   0.0247503258139824    0.063867784618354
  0.0134972035227983     0.00016563199896       0.022903244334     0.00070206965243   0.0220993083966506   0.0501613077920652
  0.0140059762184734      0.0001720495234       0.020941659098     0.00065024718286   0.0196938944372459   0.0400128315108388
   0.014501707462322     0.00017816955224       0.018923064357     0.00058677749577   0.0176170140980292   0.0326492424530873
  0.0150017099406105     0.00018415320781       0.017116211755     0.00053627643673   0.0157556688327239   0.0269743964306099
  0.0155061432360306     0.00019052271055       0.014995975081     0.00047853100972   0.0140847722737128   0.0225170951359875
  0.0160061740159357      0.0001966905378       0.013594950787     0.00044308578965   0.0126081770373137    0.019018875780515
  0.0165018288432143     0.00020273386055       0.011717633535      0.0003884343628   0.0113001860721406   0.0162304703347124
  0.0170019090405102      0.0002088247707       0.010774921178     0.00035865186268   0.0101190684941357   0.0139404504666316
  0.0175063315786635     0.00021516350672      0.0092130099407     0.00031625463242  0.00905203320527059   0.0120423274293469
  0.0180064129220564     0.00022096328211      0.0084656119626        0.00029637975  0.00810334481116264   0.0104810848887405
  0.0185020507138359     0.00022769668152      0.0079025954064     0.00027500091971   0.0072587054103095  0.00918515047050592
  0.0189976881699543     0.00023326363836      0.0066232577143     0.00024027758882  0.00649888089406573  0.00809065888150564
  0.0195065280466502     0.00023983478582      0.0055237733036     0.00020993861571  0.00579739553937462  0.00713685951731427
  0.0200021309560021     0.00024543246741      0.0054402937032     0.00020593417691  0.00518250321086232  0.00634311542661993
  0.0205022314435053     0.00025212207513      0.0047720724049     0.00018338624356  0.00462368367801532   0.0056545749465948
  0.0210066765999461      0.0002579390426      0.0044608946297     0.00017346783299  0.00411599126297191  0.00505456187424897
  0.0215023516985321     0.00026430411873      0.0038168089913     0.00015455221931  0.00366645361374161   0.0045425131052015
  0.0219935841096035     0.00027022179691      0.0036496240859     0.00014836852877  0.00326477145286005  0.00409941822257879
  0.0225067845634357     0.00027644191657      0.0032358856595     0.00013491181313  0.00288670084147092  0.00369392173957439
  0.0230068402021048      0.0002824254939      0.0029806203116      0.0001258452882  0.00255532181855331  0.00334690507535994
  0.0235024745247006     0.00028891305369      0.0026520305918     0.00011543051078  0.00225963853467019  0.00304324646840375
  0.0239980967567281      0.0002950937028       0.002317720565     0.00010478196393  0.00199350078762549  0.00277407205389214
  0.0245069639898063     0.00030111225308      0.0020803476792     9.6457021844e-05  0.00174843921026876  0.00252896978999727
  0.0250025290200834     0.00030741540938      0.0018726666643     6.7888537125e-05   0.0015419291079848  0.00232352946377845
  0.0274150240822469     0.00033652190824      0.0010955754341     5.9930732947e-05  0.00078337038609572  0.00156424238587232
  0.0298010374852431      0.0003664735387     0.00068822669374     4.2705738675e-05  0.00035285691093914  0.00109373462600302
  0.0322047034239187     0.00039551277681     0.00038205590059     2.9175002901e-05 0.000129736315474475 0.000787786251513785
  0.0346082897460714     0.00042534890825     0.00027428802073     2.2979616402e-05 3.72145332225859e-05 0.000582943513959848
   0.037003108468469     0.00045478101981     0.00020992013224     1.8887831883e-05 2.15597812091559e-05  0.00044182142376085
  0.0394022333342978     0.00048419880198     0.00017878291946     1.6428758375e-05 4.68432403743831e-05 0.000341386953845027
  0.0417925574298735     0.00051354990338     0.00015320563905     1.4346369893e-05 8.94249077022235e-05 0.000268631327475771
  0.0441960014235923      0.0005431979221      0.0001279583107     1.2505359819e-05 0.000134702846876323 0.000214389169288917
  0.0466081805307317     0.00057284894824     0.00011568876015     1.1358271362e-05 0.000173550985482967  0.00017335137641038
  0.0489983914824497     0.00060204317738     0.00011474864321     1.0648769035e-05 0.000200844288297114 0.000142199632183834
  0.0514060698569796     0.00063188897848     0.00011554320753     1.0195096521e-05 0.000215385374536398 0.000117821305147262
  0.0538049895121319     0.00066093152173     0.00010620211611     9.4326468746e-06 0.000217328485822221 9.87178695895078e-05
  0.0562038065775404     0.00069089297361      9.531035598e-05      8.564990304e-06 0.000208409271654916 8.35207957774863e-05
   0.058611375293019     0.00071996754912     8.9509450134e-05     7.8026974421e-06 0.000190948850156694 7.12641185910108e-05
  0.0610057026054072     0.00074957092425     8.0686262219e-05      7.083153203e-06 0.000167801703553752 6.13761746488505e-05
  0.0634087922072757     0.00077957618369     6.3396182875e-05     6.2113913319e-06 0.000141414399757833 5.32556999289402e-05
   0.065816155859087     0.00080861497598     5.8864371009e-05     5.7986854315e-06 0.000114203867667819 4.65482511604542e-05
  0.0682015749537702     0.00083817860114     4.3237449192e-05     4.9048918192e-06 8.84273194658033e-05 4.10257536366448e-05
  0.0706000582297533     0.00086754724559     3.9069999344e-05     4.5737667037e-06 6.51723586139963e-05 3.63797885446342e-05
  0.0730116328598756     0.00089724255367     2.2886647423e-05     3.8596939509e-06 4.54531212791777e-05 3.24492999583595e-05
  0.0754056182375706     0.00092640599579     1.3195364229e-05     3.4554812735e-06 2.99962943089328e-05 2.91468890994356e-05
  0.0778082762566973     0.00095621578542     9.8278785225e-06     3.0793513575e-06 1.86688534609238e-05 2.63258532958433e-05
  0.0802021507435006     0.00098519130783     1.0560895404e-05     2.9954863678e-06 1.12634646537241e-05  2.3920945738984e-05
   0.082595903889625      0.0010149620379     7.3038198838e-06     2.8528466054e-06 7.20154470743485e-06 2.18532719857651e-05
   0.084993981949991      0.0010445334167     1.4364990167e-05     3.1560665228e-06 5.79608495981767e-06 2.00643415835166e-05
  0.0873963662075178      0.0010737825497     1.4718536491e-05     2.9334544451e-06 6.31099928893599e-06 1.85103805736169e-05
  0.0897986705166538      0.0011037349149     1.9323223131e-05     2.9052022651e-06 8.01855588151712e-06 1.71577845580875e-05
  0.0921965204158655      0.0011325632497     2.1829020468e-05     2.9021092799e-06 1.02633564940518e-05  1.5978016607039e-05
  0.0945986571697535      0.0011623266085     2.6387221727e-05     3.0360404597e-06 1.25271079072508e-05 1.49415952641104e-05
  0.0970007021454254       0.001191750204     2.3026477941e-05     2.7917344254e-06 1.44239443082775e-05 1.40297286335435e-05
  0.0994070212890522      0.0012213418286     2.1048831586e-05     2.5876682965e-06 1.57228582450489e-05   1.322347338417e-05
   0.101804522368352      0.0012505283445     2.3654959422e-05     2.5986886124e-06 1.63218328910257e-05 1.25122128511043e-05
   0.104201929016404      0.0012798960129     2.3102232492e-05     2.6184681121e-06 1.62421701259251e-05 1.18805468266561e-05
    0.10660360054994      0.0013096461364     1.7625805761e-05     2.3633800802e-06 1.55798971508042e-05 1.13170701885776e-05
   0.109009575387345      0.0013390737036     1.0241285549e-05     2.0652306614e-06 1.44814576264436e-05  1.0813085691259e-05
   0.111406672786594      0.0013688009236     1.0472926816e-05     2.0314368881e-06 1.31220298614145e-05 1.03636523294359e-05
   0.113812438551764      0.0013978240852     3.7705378133e-06     1.9123760282e-06 1.16556024242479e-05 9.95892793587903e-06
   0.116204952323731      0.0014276349852     4.2119788252e-06     1.8708917025e-06 1.02353703631556e-05 9.59692868603012e-06
   0.118610500859486      0.0014565449451     4.7772262071e-06      1.768246704e-06 8.95120611302891e-06 9.26883781777039e-06
   0.121011566290312       0.001486307888     4.1814711059e-06     1.7010251012e-06 7.87990453270303e-06 8.97305739331849e-06
   0.123403741638479      0.0015158182607     4.2081155122e-06     1.7154951149e-06 7.05103022914014e-06 8.70629751894983e-06
   0.125804608438414      0.0015448086277     3.8468795144e-06      1.706304384e-06  6.4562286217204e-06 8.46345937260293e-06
   0.128205326591175      0.0015746537578     5.5460512043e-06     1.6199560741e-06 6.07337258110435e-06 8.24283276823643e-06
   0.130605899020376      0.0016038822768     3.5808722144e-06     1.5352031033e-06 5.86239010805134e-06 8.04201736768889e-06
   0.133006416310005      0.0016335367711     5.7496188851e-06     1.5860647056e-06 5.77729441571021e-06 7.85891083005216e-06
   0.135398033943443      0.0016625707016     4.1068299123e-06     1.5922163377e-06 5.77296726811691e-06 7.69226347923673e-06
   0.137807030070545      0.0016923444719      9.052515487e-06     1.5538679064e-06 5.81059169156088e-06 7.53869895940566e-06
   0.140202764952614      0.0017212662403     3.7787917517e-06     1.4144475575e-06  5.8595847139538e-06 7.39876884481699e-06
   0.142602763322413      0.0017509979515     6.3656889147e-06     1.4530216804e-06 5.89988281669016e-06 7.27012637275607e-06
   0.145002629927585      0.0017801440522     6.6277728644e-06     1.5094158441e-06 5.92033866628151e-06 7.15190669756753e-06
   0.147411103300675      0.0018095354232     5.1434651907e-06     1.3695784218e-06 5.91761740711757e-06 7.04273079035578e-06
   0.149797560757257      0.0018395404262     5.5380980098e-06     1.3069808689e-06 5.89429583748716e-06 6.94303181176489e-06
   0.152201384770819       0.001868508292     5.5605317465e-06     1.2933826518e-06 5.85589082249081e-06   6.850347425832e-06
   0.154596323233343      0.0018981725234     8.7320219425e-06      1.368346308e-06 5.80999321152891e-06 6.76502578747456e-06
   0.156995498656331      0.0019273295838     5.2535267711e-06     1.2564950505e-06 5.76345434891398e-06 6.68594888575096e-06
    0.15939453046308      0.0019568192089     6.5245919049e-06     1.2235943709e-06  5.7221335097578e-06 6.61271524591465e-06
   0.161793425387676      0.0019859371982     5.2701707875e-06     1.2142834813e-06 5.68983841922249e-06 6.54480358423817e-06
   0.164187774604434      0.0020154007077     2.5255939125e-06     1.2354818678e-06 5.66828752579938e-06 6.48187454694247e-06
   0.166595120152554      0.0020446366525     4.4740396715e-06     1.2145684228e-06 5.65707338380473e-06 6.42307591200387e-06
    0.16900231386132      0.0020742662161     1.9674937532e-06     1.1161639995e-06 5.65444598648036e-06 6.36838853950426e-06
   0.171400586426551      0.0021037646205     4.7382052799e-06     1.1196367763e-06 5.65744550702527e-06 6.31765166582178e-06
   0.173803078909118      0.0021327558331     4.4456835275e-06     1.1340583214e-06 5.66269860002244e-06 6.27027069933308e-06
   0.176196672772912       0.002162686739     6.0693024405e-06     1.1247407892e-06 5.66691226505428e-06 6.22622125136253e-06
   0.178603220696827      0.0021914410515     7.3154119856e-06     1.0720275246e-06 5.66739675711629e-06 6.18485454534154e-06
   0.181005236466661      0.0022213055886     5.1053719673e-06     1.0258240586e-06 5.66226424867943e-06 6.14625973486694e-06
   0.183402709607151      0.0022503524813     5.7134866976e-06      1.053128738e-06 5.65071721309703e-06 6.11021312337215e-06
   0.185786891987095      0.0022795873081     7.5706810741e-06     1.0742755796e-06 5.63305960371864e-06 6.07663432911138e-06
   0.188192780859761      0.0023090565823     6.6508701168e-06     9.9718909703e-07 5.61010156593371e-06 6.04486958724811e-06
   0.190585354018995      0.0023382856625     7.6518170557e-06     9.7847467822e-07 5.58391312378504e-06 6.01523511311004e-06
   0.192995265765547      0.0023677624047     7.1758317623e-06     9.8290280641e-07 5.55630843024485e-06 5.98721165365053e-06
   0.195391870810298      0.0023968456114     7.2546848619e-06     1.0039586762e-06  5.5298431489284e-06  5.9610280375439e-06
   0.197788298848506      0.0024264437038      6.761991461e-06     9.3429785155e-07 5.50633897990214e-06 5.93640709554552e-06
   0.200188937283483      0.0024553200127     6.6039515386e-06     9.0572936565e-07 5.48727355731767e-06 5.91319636372382e-06
   0.202593741633338      0.0024851558653     5.6098266576e-06     9.0331526218e-07 5.47358464561107e-06 5.89130233371872e-06
   0.204993983127007      0.0025140214985      4.067034538e-06     9.3381204702e-07 5.46556370128004e-06 5.87070948241398e-06
   0.207389684743001       0.002543384033     4.4327535834e-06     8.6681747877e-07 5.46280664336155e-06    5.85132559104e-06
   0.209793924870124      0.0025730202723     3.7242591719e-06     8.2552113387e-07 5.46442133546237e-06 5.83296825264916e-06
   0.212189243222298      0.0026020358978     4.7652469675e-06     8.3048432913e-07 5.46916960302255e-06 5.81569878226483e-06
    0.21459309003202      0.0026315386217     4.8673451361e-06     8.5877380353e-07 5.47568918179698e-06 5.79932077932041e-06
   0.216992363948855      0.0026606822527     6.0231028511e-06     8.1879541304e-07 5.48259596320909e-06 5.78386478224091e-06
   0.219391480454878      0.0026901562954     5.5103562763e-06      7.757090739e-07 5.48872873094412e-06 5.76924239964948e-06
   0.221799122091677      0.0027191089822     5.0499710532e-06     7.6806426164e-07 5.49322199450923e-06 5.75535108719406e-06
   0.224189061956802      0.0027486286152     4.8851298393e-06     7.9382985158e-07  5.4955071220448e-06 5.74228913286101e-06
   0.226596280596027      0.0027774777789     5.5964440963e-06     7.7285996248e-07 5.49544297527527e-06 5.72981874742708e-06
   0.228994548500524      0.0028068671173     5.3551533217e-06     7.3140833932e-07 5.49315359446324e-06 5.71803734003331e-06
   0.231392606932463      0.0028362503811     5.7540369503e-06     7.2556965876e-07 5.48902193131815e-06 5.70685876785904e-06
   0.233790459258457      0.0028655663588     4.4777496115e-06     7.3559078736e-07 5.48357837311296e-06 5.69624633995314e-06
    0.23619245654699      0.0028950458257     6.3568285403e-06     7.3823368045e-07 5.47740349901067e-06 5.68614817823665e-06
   0.238594236158932      0.0029237259802     5.4504108218e-06     6.9060619668e-07 5.47108219567538e-06 5.67655190119562e-06
   0.240987080045326      0.0029534636724     5.2336374262e-06     6.7580342642e-07  5.4651380816133e-06 5.66747961718778e-06
   0.243388419729272      0.0029824056727     4.4128662057e-06     6.8579877078e-07 5.45995870289529e-06 5.65899122272161e-06
   0.245793882808965      0.0030117850687     4.4796996598e-06     6.9151246892e-07  5.4559626243951e-06 5.65164473883005e-06
   0.248194785997039      0.0030407140032     5.1146264921e-06     6.5402656673e-07 5.45333977491948e-06 5.64616822341899e-06
   0.250595457731349      0.0030700635702     4.6609131944e-06     6.3619614175e-07 5.45182320827708e-06 5.64260570842928e-06
