#      z (A) rho (1e-6/A2) irho (1e-6/A2)
-26.63699065   2.07048326   0.00000000
-26.53699065   2.07053905   0.00000000
-26.43699065   2.07059674   0.00000000
-26.33699065   2.07065639   0.00000000
-26.23699065   2.07071808   0.00000000
-26.13699065   2.07078185   0.00000000
-26.03699065   2.07084777   0.00000000
-25.93699065   2.07091591   0.00000000
-25.83699065   2.07098632   0.00000000
-25.73699065   2.07105908   0.00000000
-25.63699065   2.07113426   0.00000000
-25.53699065   2.07121192   0.00000000
-25.43699065   2.07129213   0.00000000
-25.33699065   2.07137498   0.00000000
-25.23699065   2.07146053   0.00000000
-25.13699065   2.07154887   0.00000000
-25.03699065   2.07164006   0.00000000
-24.93699065   2.07173420   0.00000000
-24.83699065   2.07183137   0.00000000
-24.73699065   2.07193164   0.00000000
-24.63699065   2.07203511   0.00000000
-24.53699065   2.07214187   0.00000000
-24.43699065   2.07225200   0.00000000
-24.33699065   2.07236560   0.00000000
-24.23699065   2.07248276   0.00000000
-24.13699065   2.07260357   0.00000000
-24.03699065   2.07272815   0.00000000
-23.93699065   2.07285657   0.00000000
-23.83699065   2.07298896   0.00000000
-23.73699065   2.07312542   0.00000000
-23.63699065   2.07326604   0.00000000
-23.53699065   2.07341094   0.00000000
-23.43699065   2.07356024   0.00000000
-23.33699065   2.07371404   0.00000000
-23.23699065   2.07387246   0.00000000
-23.13699065   2.07403562   0.00000000
-23.03699065   2.07420364   0.00000000
-22.93699065   2.07437664   0.00000000
-22.83699065   2.07455475   0.00000000
-22.73699065   2.07473809   0.00000000
-22.63699065   2.07492680   0.00000000
-22.53699065   2.07512100   0.00000000
-22.43699065   2.07532084   0.00000000
-22.33699065   2.07552645   0.00000000
-22.23699065   2.07573796   0.00000000
-22.13699065   2.07595552   0.00000000
-22.03699065   2.07617929   0.00000000
-21.93699065   2.07640939   0.00000000
-21.83699065   2.07664599   0.00000000
-21.73699065   2.07688923   0.00000000
-21.63699065   2.07713927   0.00000000
-21.53699065   2.07739627   0.00000000
-21.43699065   2.07766038   0.00000000
-21.33699065   2.07793178   0.00000000
-21.23699065   2.07821062   0.00000000
-21.13699065   2.07849708   0.00000000
-21.03699065   2.07879132   0.00000000
-20.93699065   2.07909351   0.00000000
-20.83699065   2.07940384   0.00000000
-20.73699065   2.07972249   0.00000000
-20.63699065   2.08004962   0.00000000
-20.53699065   2.08038543   0.00000000
-20.43699065   2.08073010   0.00000000
-20.33699065   2.08108383   0.00000000
-20.23699065   2.08144679   0.00000000
-20.13699065   2.08181920   0.00000000
-20.03699065   2.08220124   0.00000000
-19.93699065   2.08259312   0.00000000
-19.83699065   2.08299503   0.00000000
-19.73699065   2.08340718   0.00000000
-19.63699065   2.08382978   0.00000000
-19.53699065   2.08426304   0.00000000
-19.43699065   2.08470717   0.00000000
-19.33699065   2.08516238   0.00000000
-19.23699065   2.08562890   0.00000000
-19.13699065   2.08610695   0.00000000
-19.03699065   2.08659674   0.00000000
-18.93699065   2.08709850   0.00000000
-18.83699065   2.08761245   0.00000000
-18.73699065   2.08813884   0.00000000
-18.63699065   2.08867789   0.00000000
-18.53699065   2.08922983   0.00000000
-18.43699065   2.08979490   0.00000000
-18.33699065   2.09037334   0.00000000
-18.23699065   2.09096540   0.00000000
-18.13699065   2.09157131   0.00000000
-18.03699065   2.09219132   0.00000000
-17.93699065   2.09282568   0.00000000
-17.83699065   2.09347464   0.00000000
-17.73699065   2.09413845   0.00000000
-17.63699065   2.09481736   0.00000000
-17.53699065   2.09551163   0.00000000
-17.43699065   2.09622152   0.00000000
-17.33699065   2.09694728   0.00000000
-17.23699065   2.09768919   0.00000000
-17.13699065   2.09844749   0.00000000
-17.03699065   2.09922245   0.00000000
-16.93699065   2.10001435   0.00000000
-16.83699065   2.10082344   0.00000000
-16.73699065   2.10164999   0.00000000
-16.63699065   2.10249428   0.00000000
-16.53699065   2.10335658   0.00000000
-16.43699065   2.10423716   0.00000000
-16.33699065   2.10513628   0.00000000
-16.23699065   2.10605424   0.00000000
-16.13699065   2.10699129   0.00000000
-16.03699065   2.10794773   0.00000000
-15.93699065   2.10892382   0.00000000
-15.83699065   2.10991984   0.00000000
-15.73699065   2.11093607   0.00000000
-15.63699065   2.11197279   0.00000000
-15.53699065   2.11303028   0.00000000
-15.43699065   2.11410882   0.00000000
-15.33699065   2.11520868   0.00000000
-15.23699065   2.11633015   0.00000000
-15.13699065   2.11747351   0.00000000
-15.03699065   2.11863903   0.00000000
-14.93699065   2.11982699   0.00000000
-14.83699065   2.12103768   0.00000000
-14.73699065   2.12227136   0.00000000
-14.63699065   2.12352833   0.00000000
-14.53699065   2.12480885   0.00000000
-14.43699065   2.12611320   0.00000000
-14.33699065   2.12744166   0.00000000
-14.23699065   2.12879449   0.00000000
-14.13699065   2.13017198   0.00000000
-14.03699065   2.13157439   0.00000000
-13.93699065   2.13300200   0.00000000
-13.83699065   2.13445506   0.00000000
-13.73699065   2.13593386   0.00000000
-13.63699065   2.13743865   0.00000000
-13.53699065   2.13896969   0.00000000
-13.43699065   2.14052725   0.00000000
-13.33699065   2.14211159   0.00000000
-13.23699065   2.14372295   0.00000000
-13.13699065   2.14536160   0.00000000
-13.03699065   2.14702779   0.00000000
-12.93699065   2.14872175   0.00000000
-12.83699065   2.15044374   0.00000000
-12.73699065   2.15219400   0.00000000
-12.63699065   2.15397277   0.00000000
-12.53699065   2.15578028   0.00000000
-12.43699065   2.15761676   0.00000000
-12.33699065   2.15948245   0.00000000
-12.23699065   2.16137755   0.00000000
-12.13699065   2.16330231   0.00000000
-12.03699065   2.16525692   0.00000000
-11.93699065   2.16724161   0.00000000
-11.83699065   2.16925658   0.00000000
-11.73699065   2.17130202   0.00000000
-11.63699065   2.17337815   0.00000000
-11.53699065   2.17548515   0.00000000
-11.43699065   2.17762321   0.00000000
-11.33699065   2.17979251   0.00000000
-11.23699065   2.18199324   0.00000000
-11.13699065   2.18422555   0.00000000
-11.03699065   2.18648963   0.00000000
-10.93699065   2.18878562   0.00000000
-10.83699065   2.19111369   0.00000000
-10.73699065   2.19347398   0.00000000
-10.63699065   2.19586664   0.00000000
-10.53699065   2.19829179   0.00000000
-10.43699065   2.20074958   0.00000000
-10.33699065   2.20324012   0.00000000
-10.23699065   2.20576353   0.00000000
-10.13699065   2.20831993   0.00000000
-10.03699065   2.21090940   0.00000000
 -9.93699065   2.21353205   0.00000000
 -9.83699065   2.21618797   0.00000000
 -9.73699065   2.21887724   0.00000000
 -9.63699065   2.22159992   0.00000000
 -9.53699065   2.22435609   0.00000000
 -9.43699065   2.22714581   0.00000000
 -9.33699065   2.22996912   0.00000000
 -9.23699065   2.23282607   0.00000000
 -9.13699065   2.23571668   0.00000000
 -9.03699065   2.23864099   0.00000000
 -8.93699065   2.24159902   0.00000000
 -8.83699065   2.24459077   0.00000000
 -8.73699065   2.24761624   0.00000000
 -8.63699065   2.25067543   0.00000000
 -8.53699065   2.25376831   0.00000000
 -8.43699065   2.25689488   0.00000000
 -8.33699065   2.26005507   0.00000000
 -8.23699065   2.26324887   0.00000000
 -8.13699065   2.26647621   0.00000000
 -8.03699065   2.26973703   0.00000000
 -7.93699065   2.27303126   0.00000000
 -7.83699065   2.27635883   0.00000000
 -7.73699065   2.27971964   0.00000000
 -7.63699065   2.28311359   0.00000000
 -7.53699065   2.28654058   0.00000000
 -7.43699065   2.29000049   0.00000000
 -7.33699065   2.29349320   0.00000000
 -7.23699065   2.29701856   0.00000000
 -7.13699065   2.30057643   0.00000000
 -7.03699065   2.30416665   0.00000000
 -6.93699065   2.30778906   0.00000000
 -6.83699065   2.31144349   0.00000000
 -6.73699065   2.31512975   0.00000000
 -6.63699065   2.31884764   0.00000000
 -6.53699065   2.32259697   0.00000000
 -6.43699065   2.32637751   0.00000000
 -6.33699065   2.33018904   0.00000000
 -6.23699065   2.33403134   0.00000000
 -6.13699065   2.33790415   0.00000000
 -6.03699065   2.34180723   0.00000000
 -5.93699065   2.34574031   0.00000000
 -5.83699065   2.34970312   0.00000000
 -5.73699065   2.35369537   0.00000000
 -5.63699065   2.35771679   0.00000000
 -5.53699065   2.36176706   0.00000000
 -5.43699065   2.36584588   0.00000000
 -5.33699065   2.36995292   0.00000000
 -5.23699065   2.37408786   0.00000000
 -5.13699065   2.37825036   0.00000000
 -5.03699065   2.38244007   0.00000000
 -4.93699065   2.38665663   0.00000000
 -4.83699065   2.39089968   0.00000000
 -4.73699065   2.39516884   0.00000000
 -4.63699065   2.39946373   0.00000000
 -4.53699065   2.40378395   0.00000000
 -4.43699065   2.40812911   0.00000000
 -4.33699065   2.41249878   0.00000000
 -4.23699065   2.41689257   0.00000000
 -4.13699065   2.42131002   0.00000000
 -4.03699065   2.42575072   0.00000000
 -3.93699065   2.43021422   0.00000000
 -3.83699065   2.43470006   0.00000000
 -3.73699065   2.43920778   0.00000000
 -3.63699065   2.44373692   0.00000000
 -3.53699065   2.44828700   0.00000000
 -3.43699065   2.45285753   0.00000000
 -3.33699065   2.45744804   0.00000000
 -3.23699065   2.46205801   0.00000000
 -3.13699065   2.46668695   0.00000000
 -3.03699065   2.47133434   0.00000000
 -2.93699065   2.47599967   0.00000000
 -2.83699065   2.48068241   0.00000000
 -2.73699065   2.48538202   0.00000000
 -2.63699065   2.49009798   0.00000000
 -2.53699065   2.49482973   0.00000000
 -2.43699065   2.49957674   0.00000000
 -2.33699065   2.50433843   0.00000000
 -2.23699065   2.50911426   0.00000000
 -2.13699065   2.51390366   0.00000000
 -2.03699065   2.51870605   0.00000000
 -1.93699065   2.52352086   0.00000000
 -1.83699065   2.52834751   0.00000000
 -1.73699065   2.53318541   0.00000000
 -1.63699065   2.53803399   0.00000000
 -1.53699065   2.54289263   0.00000000
 -1.43699065   2.54776075   0.00000000
 -1.33699065   2.55263775   0.00000000
 -1.23699065   2.55752302   0.00000000
 -1.13699065   2.56241595   0.00000000
 -1.03699065   2.56731594   0.00000000
 -0.93699065   2.57222237   0.00000000
 -0.83699065   2.57713463   0.00000000
 -0.73699065   2.58205210   0.00000000
 -0.63699065   2.58697416   0.00000000
 -0.53699065   2.59190019   0.00000000
 -0.43699065   2.59682957   0.00000000
 -0.33699065   2.60176167   0.00000000
 -0.23699065   2.60669587   0.00000000
 -0.13699065   2.61163154   0.00000000
 -0.03699065   2.61656806   0.00000000
  0.06300935   2.62150480   0.00000000
  0.16300935   2.62644113   0.00000000
  0.26300935   2.63137643   0.00000000
  0.36300935   2.63631006   0.00000000
  0.46300935   2.64124142   0.00000000
  0.56300935   2.64616986   0.00000000
  0.66300935   2.65109477   0.00000000
  0.76300935   2.65601552   0.00000000
  0.86300935   2.66093149   0.00000000
  0.96300935   2.66584207   0.00000000
  1.06300935   2.67074664   0.00000000
  1.16300935   2.67564457   0.00000000
  1.26300935   2.68053527   0.00000000
  1.36300935   2.68541811   0.00000000
  1.46300935   2.69029249   0.00000000
  1.56300935   2.69515781   0.00000000
  1.66300935   2.70001348   0.00000000
  1.76300935   2.70485888   0.00000000
  1.86300935   2.70969343   0.00000000
  1.96300935   2.71451654   0.00000000
  2.06300935   2.71932762   0.00000000
  2.16300935   2.72412610   0.00000000
  2.26300935   2.72891139   0.00000000
  2.36300935   2.73368294   0.00000000
  2.46300935   2.73844016   0.00000000
  2.56300935   2.74318251   0.00000000
  2.66300935   2.74790942   0.00000000
  2.76300935   2.75262035   0.00000000
  2.86300935   2.75731475   0.00000000
  2.96300935   2.76199209   0.00000000
  3.06300935   2.76665183   0.00000000
  3.16300935   2.77129345   0.00000000
  3.26300935   2.77591643   0.00000000
  3.36300935   2.78052025   0.00000000
  3.46300935   2.78510442   0.00000000
  3.56300935   2.78966843   0.00000000
  3.66300935   2.79421180   0.00000000
  3.76300935   2.79873404   0.00000000
  3.86300935   2.80323467   0.00000000
  3.96300935   2.80771322   0.00000000
  4.06300935   2.81216924   0.00000000
  4.16300935   2.81660227   0.00000000
  4.26300935   2.82101186   0.00000000
  4.36300935   2.82539759   0.00000000
  4.46300935   2.82975901   0.00000000
  4.56300935   2.83409572   0.00000000
  4.66300935   2.83840729   0.00000000
  4.76300935   2.84269333   0.00000000
  4.86300935   2.84695343   0.00000000
  4.96300935   2.85118722   0.00000000
  5.06300935   2.85539432   0.00000000
  5.16300935   2.85957435   0.00000000
  5.26300935   2.86372697   0.00000000
  5.36300935   2.86785181   0.00000000
  5.46300935   2.87194854   0.00000000
  5.56300935   2.87601682   0.00000000
  5.66300935   2.88005633   0.00000000
  5.76300935   2.88406677   0.00000000
  5.86300935   2.88804781   0.00000000
  5.96300935   2.89199918   0.00000000
  6.06300935   2.89592058   0.00000000
  6.16300935   2.89981173   0.00000000
  6.26300935   2.90367238   0.00000000
  6.36300935   2.90750226   0.00000000
  6.46300935   2.91130112   0.00000000
  6.56300935   2.91506873   0.00000000
  6.66300935   2.91880486   0.00000000
  6.76300935   2.92250928   0.00000000
  6.86300935   2.92618180   0.00000000
  6.96300935   2.92982219   0.00000000
  7.06300935   2.93343029   0.00000000
  7.16300935   2.93700589   0.00000000
  7.26300935   2.94054884   0.00000000
  7.36300935   2.94405896   0.00000000
  7.46300935   2.94753611   0.00000000
  7.56300935   2.95098014   0.00000000
  7.66300935   2.95439090   0.00000000
  7.76300935   2.95776829   0.00000000
  7.86300935   2.96111217   0.00000000
  7.96300935   2.96442244   0.00000000
  8.06300935   2.96769900   0.00000000
  8.16300935   2.97094175   0.00000000
  8.26300935   2.97415063   0.00000000
  8.36300935   2.97732555   0.00000000
  8.46300935   2.98046644   0.00000000
  8.56300935   2.98357326   0.00000000
  8.66300935   2.98664596   0.00000000
  8.76300935   2.98968448   0.00000000
  8.86300935   2.99268882   0.00000000
  8.96300935   2.99565893   0.00000000
  9.06300935   2.99859480   0.00000000
  9.16300935   3.00149644   0.00000000
  9.26300935   3.00436383   0.00000000
  9.36300935   3.00719698   0.00000000
  9.46300935   3.00999592   0.00000000
  9.56300935   3.01276067   0.00000000
  9.66300935   3.01549124   0.00000000
  9.76300935   3.01818769   0.00000000
  9.86300935   3.02085005   0.00000000
  9.96300935   3.02347839   0.00000000
 10.06300935   3.02607274   0.00000000
 10.16300935   3.02863319   0.00000000
 10.26300935   3.03115980   0.00000000
 10.36300935   3.03365264   0.00000000
 10.46300935   3.03611180   0.00000000
 10.56300935   3.03853738   0.00000000
 10.66300935   3.04092946   0.00000000
 10.76300935   3.04328814   0.00000000
 10.86300935   3.04561354   0.00000000
 10.96300935   3.04790576   0.00000000
 11.06300935   3.05016492   0.00000000
 11.16300935   3.05239114   0.00000000
 11.26300935   3.05458455   0.00000000
 11.36300935   3.05674528   0.00000000
 11.46300935   3.05887347   0.00000000
 11.56300935   3.06096925   0.00000000
 11.66300935   3.06303277   0.00000000
 11.76300935   3.06506418   0.00000000
 11.86300935   3.06706363   0.00000000
 11.96300935   3.06903127   0.00000000
 12.06300935   3.07096727   0.00000000
 12.16300935   3.07287179   0.00000000
 12.26300935   3.07474499   0.00000000
 12.36300935   3.07658704   0.00000000
 12.46300935   3.07839811   0.00000000
 12.56300935   3.08017838   0.00000000
 12.66300935   3.08192803   0.00000000
 12.76300935   3.08364723   0.00000000
 12.86300935   3.08533616   0.00000000
 12.96300935   3.08699500   0.00000000
 13.06300935   3.08862395   0.00000000
 13.16300935   3.09022318   0.00000000
 13.26300935   3.09179289   0.00000000
 13.36300935   3.09333325   0.00000000
 13.46300935   3.09484447   0.00000000
 13.56300935   3.09632673   0.00000000
 13.66300935   3.09778023   0.00000000
 13.76300935   3.09920515   0.00000000
 13.86300935   3.10060169   0.00000000
 13.96300935   3.10197004   0.00000000
 14.06300935   3.10331039   0.00000000
 14.16300935   3.10462294   0.00000000
 14.26300935   3.10590787   0.00000000
 14.36300935   3.10716538   0.00000000
 14.46300935   3.10839566   0.00000000
 14.56300935   3.10959890   0.00000000
 14.66300935   3.11077529   0.00000000
 14.76300935   3.11192502   0.00000000
 14.86300935   3.11304827   0.00000000
 14.96300935   3.11414523   0.00000000
 15.06300935   3.11521609   0.00000000
 15.16300935   3.11626102   0.00000000
 15.26300935   3.11728021   0.00000000
 15.36300935   3.11827383   0.00000000
 15.46300935   3.11924207   0.00000000
 15.56300935   3.12018510   0.00000000
 15.66300935   3.12110308   0.00000000
 15.76300935   3.12199619   0.00000000
 15.86300935   3.12286460   0.00000000
 15.96300935   3.12370847   0.00000000
 16.06300935   3.12452795   0.00000000
 16.16300935   3.12532322   0.00000000
 16.26300935   3.12609442   0.00000000
 16.36300935   3.12684171   0.00000000
 16.46300935   3.12756523   0.00000000
 16.56300935   3.12826513   0.00000000
 16.66300935   3.12894155   0.00000000
 16.76300935   3.12959462   0.00000000
 16.86300935   3.13022450   0.00000000
 16.96300935   3.13083129   0.00000000
 17.06300935   3.13141513   0.00000000
 17.16300935   3.13197614   0.00000000
 17.26300935   3.13251444   0.00000000
 17.36300935   3.13303014   0.00000000
 17.46300935   3.13352335   0.00000000
 17.56300935   3.13399418   0.00000000
 17.66300935   3.13444272   0.00000000
 17.76300935   3.13486907   0.00000000
 17.86300935   3.13527332   0.00000000
 17.96300935   3.13565556   0.00000000
 18.06300935   3.13601587   0.00000000
 18.16300935   3.13635432   0.00000000
 18.26300935   3.13667099   0.00000000
 18.36300935   3.13696594   0.00000000
 18.46300935   3.13723923   0.00000000
 18.56300935   3.13749092   0.00000000
 18.66300935   3.13772107   0.00000000
 18.76300935   3.13792970   0.00000000
 18.86300935   3.13811688   0.00000000
 18.96300935   3.13828262   0.00000000
 19.06300935   3.13842697   0.00000000
 19.16300935   3.13854994   0.00000000
 19.26300935   3.13865155   0.00000000
 19.36300935   3.13873182   0.00000000
 19.46300935   3.13879076   0.00000000
 19.56300935   3.13882837   0.00000000
 19.66300935   3.13884464   0.00000000
 19.76300935   3.13883957   0.00000000
 19.86300935   3.13881314   0.00000000
 19.96300935   3.13876534   0.00000000
 20.06300935   3.13869613   0.00000000
 20.16300935   3.13860550   0.00000000
 20.26300935   3.13849339   0.00000000
 20.36300935   3.13835978   0.00000000
 20.46300935   3.13820461   0.00000000
 20.56300935   3.13802783   0.00000000
 20.66300935   3.13782939   0.00000000
 20.76300935   3.13760921   0.00000000
 20.86300935   3.13736724   0.00000000
 20.96300935   3.13710339   0.00000000
 21.06300935   3.13681760   0.00000000
 21.16300935   3.13650976   0.00000000
 21.26300935   3.13617980   0.00000000
 21.36300935   3.13582762   0.00000000
 21.46300935   3.13545311   0.00000000
 21.56300935   3.13505617   0.00000000
 21.66300935   3.13463670   0.00000000
 21.76300935   3.13419457   0.00000000
 21.86300935   3.13372966   0.00000000
 21.96300935   3.13324185   0.00000000
 22.06300935   3.13273101   0.00000000
 22.16300935   3.13219700   0.00000000
 22.26300935   3.13163969   0.00000000
 22.36300935   3.13105892   0.00000000
 22.46300935   3.13045456   0.00000000
 22.56300935   3.12982643   0.00000000
 22.66300935   3.12917440   0.00000000
 22.76300935   3.12849829   0.00000000
 22.86300935   3.12779794   0.00000000
 22.96300935   3.12707318   0.00000000
 23.06300935   3.12632383   0.00000000
 23.16300935   3.12554972   0.00000000
 23.26300935   3.12475066   0.00000000
 23.36300935   3.12392647   0.00000000
 23.46300935   3.12307695   0.00000000
 23.56300935   3.12220192   0.00000000
 23.66300935   3.12130118   0.00000000
 23.76300935   3.12037453   0.00000000
 23.86300935   3.11942176   0.00000000
 23.96300935   3.11844268   0.00000000
 24.06300935   3.11743707   0.00000000
 24.16300935   3.11640472   0.00000000
 24.26300935   3.11534541   0.00000000
 24.36300935   3.11425894   0.00000000
